Time[ms],Realtime Tick,Present Position,Goal Position,Position Trajectory,change,error,K*error,Time[s],mod_time,mod_present_pos,mod_goal_pos
7315,24769,3572,3003,3003,0.0,-569,-34140,7.315,0.08800000000000008,-86.0,-655.0
7395,24849,3479,3003,3003,0.0,-476,-28560,7.395,0.16799999999999926,-179.0,-655.0
7474,24928,3402,3003,3003,0.0,-399,-23940,7.474,0.2469999999999999,-256.0,-655.0
7555,25009,3341,3003,3003,0.0,-338,-20280,7.555,0.3279999999999994,-317.0,-655.0
7635,25089,3293,3003,3003,0.0,-290,-17400,7.635,0.4079999999999995,-365.0,-655.0
7715,25169,3254,3003,3003,0.0,-251,-15060,7.715,0.48799999999999955,-404.0,-655.0
7795,25249,3223,3003,3003,0.0,-220,-13200,7.795,0.5679999999999996,-435.0,-655.0
7875,25329,3200,3003,3003,0.0,-197,-11820,7.875,0.6479999999999997,-458.0,-655.0
7955,25409,3178,3003,3003,0.0,-175,-10500,7.955,0.7279999999999998,-480.0,-655.0
8034,25488,3160,3003,3003,0.0,-157,-9420,8.034,0.8070000000000004,-498.0,-655.0
8115,25569,3150,3003,3003,0.0,-147,-8820,8.115,0.8879999999999999,-508.0,-655.0
8194,25648,3141,3003,3003,0.0,-138,-8280,8.194,0.9670000000000005,-517.0,-655.0
8275,25729,3129,3003,3003,0.0,-126,-7560,8.275,1.048,-529.0,-655.0
8355,25809,3120,3003,3003,0.0,-117,-7020,8.355,1.1280000000000001,-538.0,-655.0
8435,25889,3114,3003,3003,0.0,-111,-6660,8.435,1.2080000000000002,-544.0,-655.0
8514,25968,3112,3003,3003,0.0,-109,-6540,8.514,1.286999999999999,-546.0,-655.0
8594,26048,3112,3003,3003,0.0,-109,-6540,8.594,1.366999999999999,-546.0,-655.0
8675,26129,3112,3003,3003,0.0,-109,-6540,8.675,1.4480000000000004,-546.0,-655.0
8755,26209,3112,3003,3003,0.0,-109,-6540,8.755,1.5280000000000005,-546.0,-655.0
8835,26289,3112,3003,3003,0.0,-109,-6540,8.835,1.6080000000000005,-546.0,-655.0
8915,26369,3112,3003,3003,0.0,-109,-6540,8.915,1.6879999999999988,-546.0,-655.0
8995,26449,3112,3003,3003,0.0,-109,-6540,8.995,1.767999999999999,-546.0,-655.0
9075,26529,3112,3003,3003,0.0,-109,-6540,9.075,1.847999999999999,-546.0,-655.0
9155,26609,3112,3003,3003,0.0,-109,-6540,9.155,1.927999999999999,-546.0,-655.0
9235,26689,3112,3003,3003,0.0,-109,-6540,9.235,2.007999999999999,-546.0,-655.0
9314,26768,3112,3003,3003,0.0,-109,-6540,9.314,2.0869999999999997,-546.0,-655.0
9394,26848,3112,3003,3003,0.0,-109,-6540,9.394,2.167,-546.0,-655.0
9474,26928,3112,3003,3003,0.0,-109,-6540,9.474,2.247,-546.0,-655.0
9554,27008,3112,3003,3003,0.0,-109,-6540,9.554,2.327,-546.0,-655.0
9634,27088,3112,3003,3003,0.0,-109,-6540,9.634,2.407,-546.0,-655.0
9714,27168,3112,3003,3003,0.0,-109,-6540,9.714,2.487,-546.0,-655.0
9795,27249,3112,3003,3003,0.0,-109,-6540,9.795,2.5679999999999996,-546.0,-655.0
9875,27329,3112,3003,3003,0.0,-109,-6540,9.875,2.6479999999999997,-546.0,-655.0
9954,27408,3112,3003,3003,0.0,-109,-6540,9.954,2.7270000000000003,-546.0,-655.0
10034,27488,3112,3003,3003,0.0,-109,-6540,10.034,2.8070000000000004,-546.0,-655.0
10114,27568,3112,3003,3003,0.0,-109,-6540,10.114,2.8870000000000005,-546.0,-655.0
10194,27648,3112,3003,3003,0.0,-109,-6540,10.194,2.9670000000000005,-546.0,-655.0
10275,27729,3112,3003,3003,0.0,-109,-6540,10.275,3.048,-546.0,-655.0
10354,27808,3112,3003,3003,0.0,-109,-6540,10.354,3.126999999999999,-546.0,-655.0
10434,27888,3112,3003,3003,0.0,-109,-6540,10.434,3.206999999999999,-546.0,-655.0
10514,27968,3112,3003,3003,0.0,-109,-6540,10.514,3.286999999999999,-546.0,-655.0
10594,28048,3112,3003,3003,0.0,-109,-6540,10.594,3.366999999999999,-546.0,-655.0
10674,28128,3112,3003,3003,0.0,-109,-6540,10.674,3.446999999999999,-546.0,-655.0
10754,28208,3112,3003,3003,0.0,-109,-6540,10.754,3.5269999999999992,-546.0,-655.0
10834,28288,3112,3003,3003,0.0,-109,-6540,10.834,3.6069999999999993,-546.0,-655.0
10914,28368,3112,3003,3003,0.0,-109,-6540,10.914,3.6869999999999994,-546.0,-655.0
10995,28449,3112,3003,3003,0.0,-109,-6540,10.995,3.767999999999999,-546.0,-655.0
11074,28528,3112,3003,3003,0.0,-109,-6540,11.074,3.8469999999999995,-546.0,-655.0
11154,28608,3112,3003,3003,0.0,-109,-6540,11.154,3.9269999999999996,-546.0,-655.0
11234,28688,3112,3003,3003,0.0,-109,-6540,11.234,4.007,-546.0,-655.0
11314,28768,3112,3003,3003,0.0,-109,-6540,11.314,4.087,-546.0,-655.0
11395,28849,3112,3003,3003,0.0,-109,-6540,11.395,4.167999999999999,-546.0,-655.0
11474,28928,3112,3003,3003,0.0,-109,-6540,11.474,4.247,-546.0,-655.0
11554,29008,3112,3003,3003,0.0,-109,-6540,11.554,4.327,-546.0,-655.0
11634,29088,3112,3003,3003,0.0,-109,-6540,11.634,4.407,-546.0,-655.0
11714,29168,3112,3003,3003,0.0,-109,-6540,11.714,4.487,-546.0,-655.0
11794,29248,3112,3003,3003,0.0,-109,-6540,11.794,4.567,-546.0,-655.0
11874,29328,3112,3003,3003,0.0,-109,-6540,11.874,4.647,-546.0,-655.0
11954,29408,3112,3003,3003,0.0,-109,-6540,11.954,4.727,-546.0,-655.0
12034,29488,3112,3003,3003,0.0,-109,-6540,12.034,4.807,-546.0,-655.0
12114,29568,3112,3003,3003,0.0,-109,-6540,12.114,4.8870000000000005,-546.0,-655.0
12194,29648,3112,3003,3003,0.0,-109,-6540,12.194,4.9670000000000005,-546.0,-655.0
12274,29728,3112,3003,3003,0.0,-109,-6540,12.274,5.046999999999999,-546.0,-655.0
12354,29808,3112,3003,3003,0.0,-109,-6540,12.354,5.126999999999999,-546.0,-655.0
12434,29888,3112,3003,3003,0.0,-109,-6540,12.434,5.206999999999999,-546.0,-655.0
12514,29968,3112,3003,3003,0.0,-109,-6540,12.514,5.286999999999999,-546.0,-655.0
12594,30048,3112,3003,3003,0.0,-109,-6540,12.594,5.366999999999999,-546.0,-655.0
12674,30128,3112,3003,3003,0.0,-109,-6540,12.674,5.446999999999999,-546.0,-655.0
12754,30208,3112,3003,3003,0.0,-109,-6540,12.754,5.526999999999999,-546.0,-655.0
12834,30288,3112,3003,3003,0.0,-109,-6540,12.834,5.606999999999999,-546.0,-655.0
12914,30368,3112,3003,3003,0.0,-109,-6540,12.914,5.686999999999999,-546.0,-655.0
12994,30448,3112,3003,3003,0.0,-109,-6540,12.994,5.7669999999999995,-546.0,-655.0
13074,30528,3112,3003,3003,0.0,-109,-6540,13.074,5.8469999999999995,-546.0,-655.0
13154,30608,3112,3003,3003,0.0,-109,-6540,13.154,5.927,-546.0,-655.0
13234,30688,3112,3003,3003,0.0,-109,-6540,13.234,6.007,-546.0,-655.0
